freq,psd_x,psd_y,psd_z,psd_xyz
0.0,4.761e+02,1.398e+01,9.668e+00,4.997e+02
1.6,2.797e+02,4.265e+01,4.618e+01,3.685e+02
3.2,4.221e+01,4.715e+01,5.526e+01,1.446e+02
4.8,4.772e+02,4.165e+01,5.788e+01,5.768e+02
6.4,1.504e+03,4.569e+01,6.118e+01,1.610e+03
8.0,2.446e+03,4.973e+01,5.742e+01,2.553e+03
9.6,3.388e+03,5.594e+01,5.422e+01,3.498e+03
11.2,4.629e+03,5.838e+01,5.395e+01,4.741e+03
12.8,6.351e+03,6.038e+01,5.472e+01,6.466e+03
14.4,8.565e+03,7.251e+01,5.532e+01,8.693e+03
16.0,1.111e+04,9.522e+01,5.466e+01,1.126e+04
17.6,1.420e+04,1.243e+02,5.637e+01,1.438e+04
19.2,1.742e+04,1.381e+02,5.704e+01,1.762e+04
20.8,2.075e+04,1.303e+02,5.644e+01,2.094e+04
22.4,2.577e+04,1.344e+02,5.937e+01,2.596e+04
24.0,3.195e+04,1.430e+02,5.867e+01,3.215e+04
25.6,3.827e+04,1.663e+02,6.583e+01,3.850e+04
27.2,4.574e+04,1.785e+02,7.321e+01,4.599e+04
28.8,5.820e+04,2.148e+02,7.309e+01,5.849e+04
30.4,7.444e+04,3.385e+02,7.208e+01,7.485e+04
32.0,9.523e+04,4.104e+02,7.990e+01,9.572e+04
33.6,1.232e+05,5.009e+02,8.854e+01,1.238e+05
35.2,1.603e+05,7.410e+02,1.564e+02,1.612e+05
36.8,2.061e+05,1.445e+03,4.259e+02,2.079e+05
38.4,2.693e+05,2.301e+03,6.546e+02,2.723e+05
40.0,3.708e+05,2.905e+03,6.415e+02,3.744e+05
41.6,4.812e+05,4.694e+03,7.325e+02,4.867e+05
43.2,5.254e+05,6.153e+03,6.570e+02,5.322e+05
44.8,5.629e+05,7.602e+03,3.562e+02,5.709e+05
46.4,6.666e+05,9.974e+03,1.709e+02,6.767e+05
48.0,8.130e+05,9.225e+03,1.057e+02,8.223e+05
49.6,9.978e+05,6.380e+03,1.161e+02,1.004e+06
51.2,1.082e+06,3.050e+03,1.633e+02,1.086e+06
52.8,9.895e+05,2.306e+03,1.697e+02,9.919e+05
54.4,7.843e+05,2.120e+03,2.150e+02,7.866e+05
56.0,6.026e+05,2.066e+03,3.879e+02,6.050e+05
57.6,4.678e+05,2.762e+03,7.066e+02,4.712e+05
59.2,4.486e+05,4.286e+03,1.066e+03,4.540e+05
60.8,4.718e+05,6.158e+03,1.509e+03,4.795e+05
62.4,4.404e+05,9.298e+03,2.141e+03,4.518e+05
64.0,3.592e+05,1.477e+04,2.508e+03,3.764e+05
65.6,2.653e+05,1.546e+04,1.940e+03,2.827e+05
67.2,2.036e+05,9.287e+03,6.147e+02,2.135e+05
68.8,1.634e+05,7.816e+03,5.438e+02,1.718e+05
70.4,1.265e+05,3.774e+03,8.713e+02,1.312e+05
72.0,9.755e+04,3.117e+03,9.961e+02,1.017e+05
73.6,8.188e+04,3.868e+03,9.727e+02,8.672e+04
75.2,6.938e+04,5.445e+03,9.113e+02,7.573e+04
76.8,6.194e+04,5.500e+03,8.670e+02,6.830e+04
78.4,6.326e+04,4.359e+03,8.001e+02,6.842e+04
80.0,7.082e+04,4.874e+03,9.637e+02,7.666e+04
81.6,8.190e+04,6.082e+03,1.550e+03,8.954e+04
83.2,1.068e+05,9.205e+03,2.127e+03,1.182e+05
84.8,1.496e+05,1.260e+04,2.386e+03,1.646e+05
86.4,1.967e+05,1.408e+04,1.939e+03,2.128e+05
88.0,2.206e+05,1.434e+04,1.102e+03,2.361e+05
89.6,2.394e+05,1.084e+04,8.184e+02,2.510e+05
91.2,2.459e+05,4.206e+03,1.140e+03,2.513e+05
92.8,2.229e+05,2.792e+03,1.004e+03,2.267e+05
94.5,1.987e+05,2.093e+03,8.307e+02,2.016e+05
96.1,1.835e+05,1.842e+03,6.661e+02,1.860e+05
97.7,1.687e+05,1.812e+03,4.754e+02,1.710e+05
99.3,1.566e+05,1.891e+03,3.672e+02,1.589e+05
100.9,1.459e+05,2.176e+03,2.602e+02,1.483e+05
102.5,1.248e+05,1.972e+03,2.623e+02,1.270e+05
104.1,9.805e+04,1.710e+03,3.529e+02,1.001e+05
105.7,7.557e+04,1.424e+03,4.382e+02,7.743e+04
107.3,5.536e+04,1.253e+03,4.863e+02,5.710e+04
108.9,5.096e+04,1.561e+03,6.509e+02,5.317e+04
110.5,5.641e+04,2.068e+03,1.006e+03,5.948e+04
112.1,5.876e+04,2.510e+03,1.100e+03,6.237e+04
113.7,7.091e+04,2.122e+03,8.366e+02,7.387e+04
115.3,6.583e+04,1.522e+03,6.315e+02,6.798e+04
116.9,5.191e+04,1.229e+03,6.306e+02,5.377e+04
118.5,5.237e+04,1.045e+03,6.026e+02,5.402e+04
120.1,4.287e+04,1.052e+03,5.643e+02,4.449e+04
121.7,3.119e+04,1.459e+03,8.505e+02,3.350e+04
123.3,3.260e+04,2.224e+03,1.142e+03,3.597e+04
124.9,3.767e+04,3.301e+03,1.365e+03,4.234e+04
126.5,5.140e+04,4.782e+03,1.935e+03,5.811e+04
128.1,7.823e+04,6.608e+03,2.667e+03,8.750e+04
129.7,1.173e+05,9.561e+03,3.418e+03,1.303e+05
131.3,1.512e+05,9.896e+03,3.082e+03,1.642e+05
132.9,6.413e+04,3.213e+03,1.352e+03,6.869e+04
134.5,1.341e+04,7.049e+02,6.621e+02,1.478e+04
136.1,1.114e+04,5.801e+02,6.743e+02,1.239e+04
137.7,1.258e+04,6.417e+02,6.162e+02,1.384e+04
139.3,1.046e+04,6.147e+02,4.882e+02,1.156e+04
140.9,8.548e+03,5.641e+02,3.734e+02,9.486e+03
142.5,7.663e+03,5.428e+02,2.830e+02,8.489e+03
144.1,8.042e+03,4.964e+02,2.354e+02,8.774e+03
145.7,8.567e+03,4.346e+02,1.922e+02,9.194e+03
147.3,9.723e+03,4.583e+02,2.145e+02,1.040e+04
148.9,1.022e+04,4.147e+02,2.501e+02,1.089e+04
150.5,8.609e+03,3.471e+02,2.587e+02,9.215e+03
152.1,6.881e+03,3.683e+02,2.861e+02,7.536e+03
153.7,6.661e+03,3.809e+02,3.270e+02,7.369e+03
155.3,7.712e+03,4.715e+02,4.316e+02,8.615e+03
156.9,9.319e+03,6.265e+02,6.190e+02,1.056e+04
158.5,1.038e+04,8.788e+02,8.193e+02,1.208e+04
160.1,1.216e+04,1.128e+03,1.048e+03,1.434e+04
161.7,1.523e+04,1.247e+03,1.188e+03,1.767e+04
163.3,2.106e+04,1.246e+03,1.325e+03,2.363e+04
164.9,3.392e+04,1.290e+03,1.585e+03,3.680e+04
166.5,4.429e+04,1.265e+03,1.516e+03,4.707e+04
168.1,5.098e+04,1.240e+03,1.187e+03,5.341e+04
169.7,5.892e+04,1.168e+03,9.642e+02,6.105e+04
171.3,6.100e+04,1.069e+03,6.862e+02,6.276e+04
172.9,5.790e+04,9.445e+02,4.839e+02,5.933e+04
174.5,6.178e+04,8.459e+02,4.729e+02,6.310e+04
176.1,7.737e+04,8.611e+02,5.886e+02,7.882e+04
177.7,8.548e+04,9.197e+02,6.712e+02,8.707e+04
179.3,7.682e+04,8.114e+02,7.198e+02,7.835e+04
180.9,6.240e+04,7.901e+02,6.539e+02,6.385e+04
182.5,6.200e+04,9.721e+02,6.008e+02,6.357e+04
184.1,5.783e+04,1.009e+03,5.619e+02,5.941e+04
185.7,5.402e+04,9.583e+02,5.195e+02,5.550e+04
187.3,5.008e+04,9.140e+02,4.615e+02,5.146e+04
188.9,4.662e+04,8.680e+02,4.443e+02,4.793e+04
190.5,4.232e+04,8.155e+02,4.252e+02,4.356e+04
192.1,3.849e+04,7.493e+02,3.970e+02,3.964e+04
193.7,3.717e+04,7.455e+02,3.788e+02,3.829e+04
195.3,3.613e+04,7.118e+02,3.696e+02,3.721e+04
196.9,3.699e+04,8.763e+02,3.827e+02,3.825e+04
198.5,4.253e+04,1.721e+03,3.597e+02,4.462e+04
